time	flux
2456895.54877	1.00076130467
2456895.54992	1.00076535412
2456895.55054	1.0007675208
2456895.55107	1.00076938304
2456895.55169	1.00077153851
2456895.55222	1.00077339097
2456895.55284	1.00077553497
2456895.55337	1.00077737743
2456895.55399	1.00077950971
2456895.55452	1.00078134194
2456895.55514	1.00078346225
2456895.55567	1.00078528404
2456895.55629	1.00078739212
2456895.55682	1.00078920326
2456895.55744	1.00079129885
2456895.55798	1.00079309912
2456895.55859	1.00079518197
2456895.55913	1.00079697115
2456895.55974	1.00079904103
2456895.56028	1.0008008189
2456895.56089	1.00080287555
2456895.56143	1.00080464189
2456895.56205	1.00080668506
2456895.56258	1.00080843968
2456895.5632	1.00081046911
2456895.56373	1.00081221179
2456895.56435	1.00081422725
2456895.56488	1.00081595776
2456895.5655	1.00081795901
2456895.56603	1.00081967715
2456895.56665	1.00082166393
2456895.56718	1.0008233695
2456895.5678	1.00082534158
2456895.56833	1.00082703436
2456895.56895	1.00082899149
2456895.56948	1.00083067128
2456895.5701	1.00083261322
2456895.57063	1.00083427981
2456895.57125	1.00083620632
2456895.57178	1.0008378595
2456895.5724	1.00083977035
2456895.57294	1.00084140993
2456895.57355	1.00084330488
2456895.57409	1.00084493064
2456895.5747	1.00084680946
2456895.57524	1.00084842121
2456895.57586	1.00085028366
2456895.57639	1.0008518812
2456895.57701	1.00085372705
2456895.57754	1.00085531018
2456895.57816	1.0008571392
2456895.57869	1.00085870773
2456895.57931	1.00086051969
2456895.57984	1.00086207341
2456895.58046	1.00086386809
2456895.58099	1.00086540681
2456895.58161	1.00086718398
2456895.58214	1.00086870752
2456895.58276	1.00087046696
2456895.58329	1.00087197511
2456895.58391	1.0008737166
2456895.58444	1.00087520918
2456895.58506	1.0008769325
2456895.58559	1.00087840932
2456895.58621	1.00088011425
2456895.58675	1.00088157513
2456895.58736	1.00088326145
2456895.5879	1.0008847062
2456895.58851	1.00088637371
2456895.58905	1.00088780215
2456895.58967	1.00088945062
2456895.5902	1.00089086257
2456895.59082	1.00089249181
2456895.59135	1.00089388708
2456895.59197	1.00089549688
2456895.5925	1.0008968753
2456895.59312	1.00089846544
2456895.59365	1.00089982684
2456895.59427	1.00090139713
2456895.5948	1.00090274133
2456895.59542	1.00090429156
2456895.59595	1.00090561839
2456895.59657	1.00090714837
2456895.5971	1.00090845766
2456895.59772	1.0009099672
2456895.59825	1.00091125878
2456895.59887	1.00091274767
2456895.5994	1.00091402137
2456895.60002	1.00091548943
2456895.60055	1.0009167451
2456895.60117	1.00091819213
2456895.60171	1.0009194296
2456895.60232	1.00092085542
2456895.60286	1.00092207453
2456895.60347	1.00092347896
2456895.60401	1.00092467955
2456895.60463	1.00092606241
2456895.60516	1.00092724433
2456895.60578	1.00092860543
2456895.60631	1.00092976852
2456895.60693	1.00093110769
2456895.60746	1.00093225181
2456895.60808	1.00093356887
2456895.60861	1.00093469387
2456895.60923	1.00093598865
2456895.60976	1.00093709438
2456895.61038	1.00093836672
2456895.61091	1.00093945303
2456895.61153	1.00094070276
2456895.61206	1.00094176952
2456895.61268	1.00094299647
2456895.61321	1.00094404353
2456895.61383	1.00094524754
2456895.61436	1.00094627478
2456895.61498	1.0009474557
2456895.61552	1.00094846296
2456895.61613	1.00094962064
2456895.61667	1.0009506078
2456895.61728	1.00095174208
2456895.61782	1.00095270901
2456895.61844	1.00095381974
2456895.61897	1.00095476632
2456895.61959	1.00095585335
2456895.62012	1.00095677945
2456895.62074	1.00095784264
2456895.62127	1.00095874815
2456895.62189	1.00095978736
2456895.62242	1.00096067214
2456895.62304	1.00096168723
2456895.62357	1.00096255118
2456895.62419	1.00096354202
2456895.62472	1.00096438501
2456895.62534	1.00096535147
2456895.62587	1.0009661734
2456895.62649	1.00096711535
2456895.62702	1.00096791611
2456895.62764	1.00096883342
2456895.62817	1.0009696129
2456895.62879	1.00097050546
2456895.62933	1.00097104269
2456895.62994	1.00096320864
2456895.63048	1.0009414955
2456895.63109	1.00089718453
2456895.63163	1.0008487213
2456895.63224	1.00078417365
2456895.63278	1.00072322835
2456895.6334	1.00064792371
2456895.63393	1.00058030249
2456895.63455	1.00049988683
2456895.63508	1.00043001144
2456895.6357	1.00034946123
2456895.63623	1.00028170692
2456895.63685	1.00020648819
2456895.63738	1.00014620839
2456895.638	1.00008395857
2456895.63853	1.00004033242
2456895.63915	1.00000985961
2456895.63968	1.00000065221
2456895.6403	1.0
2456895.64083	1.0
2456895.64145	1.0
2456895.64198	1.0
2456895.6426	1.0
2456895.64313	1.0
2456895.64375	1.0
2456895.64429	1.0
2456895.6449	1.0
2456895.64544	1.0
2456895.64605	1.0
2456895.64659	1.0
2456895.64721	1.0
2456895.64774	1.0
2456895.64836	1.0
2456895.64889	1.0
2456895.64951	1.0
2456895.65004	1.0
2456895.65066	1.0
2456895.65119	1.0
2456895.65181	1.0
2456895.65234	1.0
2456895.65296	1.0
2456895.65349	1.0
2456895.65411	1.0
2456895.65464	1.0
2456895.65526	1.0
2456895.65579	1.0
2456895.65641	1.0
2456895.65694	1.0
2456895.65756	1.0
2456895.6581	1.0
2456895.65871	1.0
2456895.65925	1.0
2456895.65986	1.0
2456895.6604	1.0
2456895.66102	1.0
2456895.66155	1.0
2456895.66217	1.0
2456895.6627	1.0
2456895.66332	1.0
2456895.66385	1.0
2456895.66447	1.0
2456895.665	1.0
2456895.66562	1.0
2456895.66615	1.0
2456895.66677	1.0
2456895.6673	1.0
2456895.66792	1.0
2456895.66845	1.0
2456895.66907	1.0
2456895.6696	1.0
2456895.67022	1.0
2456895.67075	1.0
2456895.67137	1.0
2456895.6719	1.0
2456895.67252	1.0
2456895.67306	1.0
2456895.67367	1.0
2456895.67421	1.0
2456895.67482	1.0
2456895.67536	1.0
2456895.67598	1.0
2456895.67651	1.0
2456895.67713	1.0
2456895.67766	1.0
2456895.67828	1.0
2456895.67881	1.0
2456895.67943	1.0
2456895.67996	1.0
2456895.68058	1.0
2456895.68111	1.0
2456895.68173	1.0
2456895.68226	1.0
2456895.68288	1.0
2456895.68341	1.0
2456895.68403	1.0
2456895.68456	1.0
2456895.68518	1.0
2456895.68571	1.0
2456895.68633	1.0
2456895.68687	1.0
2456895.68748	1.0
2456895.68802	1.0
2456895.68863	1.0
2456895.68917	1.0
2456895.68979	1.0
2456895.69032	1.0
2456895.69094	1.0
2456895.69147	1.0
2456895.69209	1.0
2456895.69262	1.0
2456895.69324	1.0
2456895.69377	1.0
2456895.69439	1.0
2456895.69492	1.0
2456895.69554	1.0
2456895.69607	1.0
2456895.69669	1.0
2456895.69722	1.0
2456895.69784	1.0
2456895.69837	1.0
2456895.69899	1.0
2456895.69952	1.0
2456895.70014	1.0
2456895.70068	1.0
2456895.70129	1.0
2456895.70183	1.0
2456895.70244	1.0
2456895.70298	1.0
2456895.70359	1.0
2456895.70413	1.0
2456895.70475	1.0
2456895.70528	1.0
2456895.7059	1.0
2456895.70643	1.0
2456895.70705	1.0
2456895.70758	1.0
2456895.7082	1.0
2456895.70873	1.0
2456895.70935	1.0
2456895.70988	1.0
2456895.7105	1.0
2456895.71103	1.0
2456895.71165	1.0
2456895.71218	1.0
2456895.7128	1.0
2456895.71333	1.0
2456895.71395	1.0
2456895.71448	1.0
2456895.7151	1.0
2456895.71564	1.0
2456895.71625	1.0
2456895.71679	1.0
2456895.7174	1.0
2456895.71794	1.0
2456895.71856	1.0
2456895.71909	1.0
2456895.71971	1.0000014345
2456895.72024	1.0000128912
2456895.72086	1.00004620897
2456895.72139	1.00009031752
2456895.72201	1.00015174707
2456895.72254	1.00021055327
2456895.72316	1.00028346328
2456895.72369	1.0003487696
2456895.72431	1.00042611135
2456895.72484	1.00049290637
2456895.72546	1.00056951269
2456895.72599	1.00063363111
2456895.72661	1.00070472773
2456895.72714	1.00076189366
2456895.72776	1.00082195379
2456895.72829	1.00086637898
2456895.72891	1.00090537939
2456895.72945	1.0009226716
2456895.73006	1.00092729368
2456895.7306	1.00092612238
2456895.73121	1.00092473454
2456895.73175	1.00092353034
2456895.73237	1.00092212064
2456895.7329	1.00092089771
2456895.73352	1.00091946634
2456895.73405	1.00091822483
2456895.73467	1.00091677196
2456895.7352	1.00091551204
2456895.73582	1.00091403785
2456895.73635	1.00091275967
2456895.73697	1.00091126436
2456895.7375	1.00090996808
2456895.73812	1.00090845183
2456895.73865	1.00090713762
2456895.73927	1.00090560062
2456895.7398	1.00090426864
2456895.74042	1.00090271109
2456895.74095	1.00090136151
2456895.74157	1.0008997836
2456895.7421	1.00089841658
2456895.74272	1.00089681851
2456895.74325	1.00089543424
2456895.74387	1.00089381621
2456895.74441	1.00089241485
2456895.74502	1.00089077706
2456895.74556	1.00088935879
2456895.74617	1.00088770145
2456895.74671	1.00088626645
2456895.74733	1.00088458976
2456895.74786	1.00088313821
2456895.74848	1.00088144238
2456895.74901	1.00087997445
2456895.74963	1.00087825971
2456895.75016	1.00087677559
2456895.75078	1.00087504213
2456895.75131	1.000873542
2456895.75193	1.00087179005
2456895.75246	1.0008702741
2456895.75308	1.00086850387
2456895.75361	1.00086697229
2456895.75423	1.000865184
2456895.75476	1.00086363698
2456895.75538	1.00086183085
2456895.75591	1.00086026859
2456895.75653	1.00085844484
2456895.75706	1.00085686752
2456895.75768	1.00085502638
2456895.75822	1.0008534342
2456895.75883	1.0008515759
2456895.75937	1.00084996905
2456895.75998	1.00084809381
2456895.76052	1.0008464725
2456895.76114	1.00084458056
2456895.76167	1.00084294497
2456895.76229	1.00084103656
2456895.76282	1.0008393869
2456895.76344	1.00083746225
2456895.76397	1.00083579873
2456895.76459	1.00083385808
2456895.76512	1.00083218089
2456895.76574	1.00083022447
2456895.76627	1.00082853382
2456895.76689	1.00082656187
2456895.76742	1.00082485797
2456895.76804	1.00082287073
2456895.76857	1.00082115379
2456895.76919	1.0008191515
2456895.76972	1.00081742172
2456895.77034	1.00081540462
2456895.77087	1.00081366221
2456895.77149	1.00081163055
2456895.77202	1.00080987573
2456895.77264	1.00080782975
2456895.77318	1.00080606272
2456895.77379	1.00080400267
2456895.77433	1.00080222364
2456895.77495	1.00080014977
2456895.77548	1.00079835896
2456895.7761	1.00079627151
2456895.77663	1.00079446914
2456895.77725	1.00079236837
2456895.77778	1.00079055464
2456895.7784	1.0007884408
2456895.77893	1.00078661594
2456895.77955	1.00078448927
2456895.78008	1.0007826535
2456895.7807	1.00078051426
2456895.78123	1.00077866778
2456895.78185	1.00077651623
2456895.78238	1.00077465928
2456895.783	1.00077249566
2456895.78353	1.00077062845
2456895.78415	1.00076845302
2456895.78468	1.00076657577
2456895.7853	1.00076438879
2456895.78583	1.00076250173
2456895.78645	1.00076030346
2456895.78699	1.00075840679
2456895.7876	1.00075619749
2456895.78814	1.00075429145
2456895.78875	1.00075207136
2456895.78929	1.00075015617
2456895.78991	1.00074792557
2456895.79044	1.00074600145
2456895.79106	1.00074376059
2456895.79159	1.00074182776
2456895.79221	1.0007395769
2456895.79274	1.0007376356
2456895.79336	1.000735375
2456895.79389	1.00073342543
2456895.79451	1.00073115536
2456895.79504	1.00072919776
2456895.79566	1.00072691847
2456895.79619	1.00072495307
2456895.79681	1.00072266482
2456895.79734	1.00072069184
2456895.79796	1.0007183949
2456895.79849	1.00071641456
2456895.79911	1.00071410919
2456895.79964	1.00071212172
2456895.80026	1.00070980818
2456895.8008	1.0007078138
2456895.80141	1.00070549236
2456895.80195	1.00070349131
2456895.80256	1.00070116222
2456895.8031	1.00069915472
2456895.80372	1.00069681825
2456895.80425	1.00069480452
2456895.80487	1.00069246094
2456895.8054	1.00069044121
2456895.80602	1.00068809077
2456895.80655	1.00068606527
2456895.80717	1.00068370823
2456895.8077	1.00068167718
2456895.80832	1.00067931382
2456895.80885	1.00067727745
2456895.80947	1.00067490802
2456895.81	1.00067286655
2456895.81062	1.00067049132
2456895.81115	1.00066844498
2456895.81177	1.00066606421
2456895.8123	1.00066401322
2456895.81292	1.00066162716
2456895.81345	1.00065957176
2456895.81407	1.00065718068
2456895.8146	1.00065512109
2456895.81522	1.00065272525
2456895.81576	1.00065066168
2456895.81637	1.00064826134
2456895.81691	1.00064619403
2456895.81752	1.00064378945
2456895.81806	1.00064171861
2456895.81868	1.00063931006
2456895.81921	1.00063723592
2456895.81983	1.00063482364
2456895.82036	1.00063274643
2456895.82098	1.00063033069
2456895.82151	1.00062825062
2456895.82213	1.00062583167
2456895.82266	1.00062374897
2456895.82328	1.00062132708
2456895.82381	1.00061924196
2456895.82443	1.00061681738
2456895.82496	1.00061473007
2456895.82558	1.00061230306
2456895.82611	1.00061021377
2456895.82673	1.00060778458
2456895.82726	1.00060569354
2456895.82788	1.00060326241
2456895.82841	1.00060116984
2456895.82903	1.00059873704
2456895.82957	1.00059664315
2456895.83018	1.00059420893
2456895.83072	1.00059211394
2456895.83133	1.00058967855
2456895.83187	1.00058758267
2456895.83249	1.00058514636
2456895.83302	1.0005830498
2456895.83364	1.00058061282
2456895.83417	1.00057851581
2456895.83479	1.0005760784
2456895.83532	1.00057398115
2456895.83594	1.00057154357
2456895.83647	1.00056944628
2456895.83709	1.00056700877
2456895.83762	1.00056491165
2456895.83824	1.00056247446
2456895.83877	1.00056037773
2456895.83939	1.00055794109
2456895.83992	1.00055584496
2456895.84054	1.00055340912
2456895.84107	1.00055131379
2456895.84169	1.00054887899
2456895.84222	1.00054678467
2456895.84284	1.00054435115
2456895.84337	1.00054225805
2456895.84399	1.00053982604
2456895.84453	1.00053773436
2456895.84514	1.0005353041
2456895.84568	1.00053321404
2456895.8463	1.00053078577
2456895.84683	1.00052869754
2456895.84745	1.00052627149
2456895.84798	1.00052418528
2456895.8486	1.00052176169
2456895.84913	1.0005196777
2456895.84975	1.00051725679
2456895.85028	1.00051517522
2456895.8509	1.00051275722
2456895.85143	1.00051067827
2456895.85205	1.00050826341
2456895.85258	1.00050618727
2456895.8532	1.00050377578
2456895.85373	1.00050170264
2456895.85435	1.00049929474
2456895.85488	1.0004972248
2456895.8555	1.0004948207
2456895.85603	1.00049275415
2456895.85665	1.00049035408
2456895.85718	1.0004882911
2456895.8578	1.00048589529
2456895.85834	1.00048383607
2456895.85895	1.00048144472
2456895.85949	1.00047938945
2456895.8601	1.00047700278
2456895.86064	1.00047495164
2456895.86126	1.00047256986
2456895.86179	1.00047052304
2456895.86241	1.00046814636
2456895.86294	1.00046610403
2456895.86356	1.00046373267
2456895.86409	1.00046169501
2456895.86471	1.00045932918
2456895.86524	1.00045729637
2456895.86586	1.00045493626
2456895.86639	1.00045290847
2456895.86701	1.00045055429
2456895.86754	1.0004485317
2456895.86816	1.00044618364
2456895.86869	1.00044416643
2456895.86931	1.0004418247
2456895.86984	1.00043981303
2456895.87046	1.00043747782
2456895.87099	1.00043547186
2456895.87161	1.00043314337
2456895.87215	1.00043114328
2456895.87276	1.00042882171
2456895.8733	1.00042682766
2456895.87391	1.00042451319
2456895.87445	1.00042252534
2456895.87507	1.00042021816
2456895.8756	1.00041823668
2456895.87622	1.00041593697
2456895.87675	1.00041396201
2456895.87737	1.00041166996
2456895.8779	1.00040970168
2456895.87852	1.00040741747
2456895.87905	1.00040545602
2456895.87967	1.00040317983
2456895.8802	1.00040122537
2456895.88082	1.00039895737
2456895.88135	1.00039701004
2456895.88197	1.00039475042
2456895.8825	1.00039281038
2456895.88312	1.0003905593
2456895.88365	1.00038862669
2456895.88427	1.00038638432
2456895.8848	1.00038445928
2456895.88542	1.00038222579
2456895.88595	1.00038030848
2456895.88657	1.00037808403
2456895.88711	1.00037617457
2456895.88772	1.00037395933
2456895.88826	1.00037205787
2456895.88887	1.00036985199
2456895.88941	1.00036795867
2456895.89003	1.00036576232
2456895.89056	1.00036387726
2456895.89118	1.00036169058
2456895.89171	1.00035981393
2456895.89233	1.00035763708
2456895.89286	1.00035576896
2456895.89348	1.00035360209
2456895.89401	1.00035174262
2456895.89463	1.00034958588
2456895.89516	1.0003477352
2456895.89578	1.00034558872
2456895.89631	1.00034374695
2456895.89693	1.00034161088
2456895.89746	1.00033977814
2456895.89808	1.00033765263
2456895.89861	1.00033582903
2456895.89923	1.00033371421
2456895.89976	1.00033189987
2456895.90038	1.00032979588
2456895.90092	1.00032799092
2456895.90153	1.00032589788
2456895.90207	1.00032410241
2456895.90268	1.00032202046
2456895.90322	1.00032023459
2456895.90384	1.00031816384
2456895.90437	1.00031638768
2456895.90499	1.00031432827
2456895.90552	1.00031256193
2456895.90614	1.00031051398
2456895.90667	1.00030875754
2456895.90729	1.00030672117
2456895.90782	1.00030497475
2456895.90844	1.00030295007
2456895.90897	1.00030121377
2456895.90959	1.00029920089
2456895.91012	1.0002974748
2456895.91074	1.00029547383
2456895.91127	1.00029375805
2456895.91189	1.00029176911
2456895.91242	1.00029006372
2456895.91304	1.00028808691
2456895.91357	1.00028639201
2456895.91419	1.00028442743
2456895.91472	1.0002827431
2456895.91534	1.00028079085
2456895.91588	1.00027911718
2456895.91649	1.00027717736
2456895.91703	1.00027551444
2456895.91765	1.00027358714
2456895.91818	1.00027193503
2456895.9188	1.00027002035
2456895.91933	1.00026837915
2456895.91995	1.00026647717
2456895.92048	1.00026484693
2456895.9211	1.00026295775
2456895.92163	1.00026133856
2456895.92225	1.00025946225
2456895.92278	1.00025785419
2456895.9234	1.00025599083
2456895.92393	1.00025439395
2456895.92455	1.00025254364
2456895.92508	1.00025095801
2456895.9257	1.0002491208
2456895.92623	1.00024754649
2456895.92685	1.00024572247
2456895.92738	1.00024415954
2456895.928	1.00024234877
2456895.92853	1.00024079728
2456895.92915	1.00023899984
2456895.92969	1.00023745984
2456895.9303	1.00023567578
2456895.93084	1.00023414733
2456895.93145	1.00023237673
2456895.93199	1.00023085989
2456895.93261	1.00022910279
2456895.93314	1.0002275976
2456895.93376	1.00022585408
2456895.93429	1.00022436059
2456895.93491	1.00022263069
2456895.93544	1.00022114894
2456895.93606	1.00021943272
2456895.93659	1.00021796276
2456895.93721	1.00021626026
2456895.93774	1.00021480214
2456895.93836	1.00021311341
2456895.93889	1.00021166716
2456895.93951	1.00020999225
2456895.94004	1.0002085579
2456895.94066	1.00020689685
2456895.94119	1.00020547445
2456895.94181	1.00020382729
2456895.94234	1.00020241686
2456895.94296	1.00020078364
2456895.94349	1.00019938521
2456895.94411	1.00019776596
2456895.94465	1.00019637957
2456895.94526	1.00019477431
2456895.9458	1.00019339998
2456895.94642	1.00019180875
2456895.94695	1.0001904465
2456895.94757	1.00018886932
2456895.9481	1.00018751918
2456895.94872	1.00018595608
2456895.94925	1.00018461806
2456895.94987	1.00018306906
2456895.9504	1.00018174318
2456895.95102	1.0001802083
2456895.95155	1.00017889458
2456895.95217	1.00017737383
2456895.9527	1.00017607228
2456895.95332	1.00017456568
2456895.95385	1.0001732763
2456895.95447	1.00017178387
2456895.955	1.00017050668
2456895.95562	1.00016902842
2456895.95615	1.00016776343
2456895.95677	1.00016629934
2456895.9573	1.00016504655
2456895.95792	1.00016359665
2456895.95846	1.00016235606
2456895.95907	1.00016092034
2456895.95961	1.00015969196
2456895.96022	1.00015827042
2456895.96076	1.00015705424
2456895.96138	1.00015564689
2456895.96191	1.00015444291
2456895.96253	1.00015304973
2456895.96306	1.00015185794
2456895.96368	1.00015047894
2456895.96421	1.00014929934
2456895.96483	1.0001479345
2456895.96536	1.00014676707
2456895.96598	1.00014541638
2456895.96651	1.00014426113
2456895.96713	1.00014292457
2456895.96766	1.00014178147
2456895.96828	1.00014045903
2456895.96881	1.00013932808
2456895.96943	1.00013801974
2456895.96996	1.00013690091
2456895.97058	1.00013560666
2456895.97111	1.00013449993
2456895.97173	1.00013321974
2456895.97227	1.00013212509
2456895.97288	1.00013085894
2456895.97342	1.00012977636
2456895.97403	1.00012852421
2456895.97457	1.00012745368
2456895.97519	1.00012621551
2456895.97572	1.00012515699
2456895.97634	1.00012393278
2456895.97687	1.00012288624
2456895.97749	1.00012167595
2456895.97802	1.00012064138
2456895.97864	1.00011944497
2456895.97917	1.00011842232
2456895.97979	1.00011723976
2456895.98032	1.00011622901
2456895.98094	1.00011506027
2456895.98147	1.00011406138
2456895.98209	1.00011290641
2456895.98262	1.00011191935
2456895.98324	1.0001107781
2456895.98377	1.00010980283
2456895.98439	1.00010867527
2456895.98492	1.00010771176
2456895.98554	1.00010659784
2456895.98607	1.00010564604
2456895.98669	1.00010454572
2456895.98723	1.00010360559
2456895.98784	1.00010251881
2456895.98838	1.00010159031
2456895.989	1.00010051702
2456895.98953	1.00009960011
2456895.99015	1.00009854027
2456895.99068	1.00009763489
